Magnetic Field (Oe) Normalized Magnetization
7019.3              1.0
6827.9              0.998159498574
6629.4              0.996965099831
6427.1              0.992682127167
6221.1              0.988153302525
6011.6              0.987865634838
5802.4              0.984625444908
5593.9              0.9799869801
5381.3              0.972918496784
5168.9              0.969418881256
4955.1              0.964066597933
4741.1              0.953909903137
4525.9              0.942534060058
4311.4              0.925802508406
4094.7              0.91004742277
3880.0              0.881584195103
3661.6              0.84831635511
3442.8              0.811660002994
3224.7              0.762637906329
3004.0              0.716128972777
2781.3              0.663239804447
2558.9              0.609472936258
2337.2              0.554252481764
2110.2              0.498759400748
1885.74              0.443432798714
1658.35              0.386254219264
1430.37              0.336445072586
1201.32              0.284018730982
970.28              0.233194217561
783.17              0.189192797338
599.38              0.148099844813
413.64              0.101683795454
225.62              0.0571199531785
175.714              0.0463604334072
129.152              0.0319545916765
83.2              0.0276748763635
37.673              0.01258328005
26.479              0.0103357225112
16.7414              0.00590306998793
7.2836              -0.000107298892636
3.2043              -0.000508956058116
