Magnetic Field (Oe) Normalized Magnetization
7019.4              1.0
6828.2              0.99831459136
6629.2              0.997779617821
6427.5              0.992268724046
6220.8              0.99444248767
6011.6              0.993805467967
5802.5              0.993055323354
5593.8              0.990252264427
5381.7              0.982124054255
5169.2              0.981237861346
4955.0              0.974361988797
4741.5              0.966242358821
4525.9              0.958681329359
4311.2              0.943616722153
4094.9              0.921676511619
3879.9              0.899679118861
3661.2              0.86684385474
3443.5              0.824717167725
3224.8              0.778324283984
3003.8              0.719078563864
2781.8              0.658838394052
2558.9              0.60435627459
2336.9              0.545368681217
2110.4              0.485094255995
1885.96              0.429146625764
1658.05              0.374326915538
1430.69              0.325095132913
1201.43              0.277646817819
969.93              0.239851668711
783.51              0.205509407641
599.5              0.167552693745
413.32              0.121631370834
226.02              0.0729184161396
175.834              0.0539218797239
129.113              0.0417339535769
83.339              0.0272249897424
37.749              0.0180018034636
26.516              0.00815622126674
16.8532              0.008501276916
7.3716              -0.00287860668007
3.2356              0.000676860307196
