Magnetic Field (Oe) Normalized Magnetization
4391.8              1.0
4238.6              1.0000675087
4079.7              1.00055975716
3918.5              1.00072358031
3755.1              1.00238304573
3590.4              1.00121565435
3421.6              0.999966246193
3255.3              0.998210439638
3085.3              0.998022138458
2914.0              0.997501258072
2742.1              0.994867485058
2567.0              0.993965748714
2394.2              0.992542552131
2215.4              0.988567634078
2039.4              0.984757417822
1862.37              0.979490500211
1681.98              0.969357310735
1503.34              0.951900106302
1320.66              0.916252271645
1140.23              0.852730301807
957.76              0.768252914227
773.49              0.670486347221
591.42              0.555427115628
407.71              0.418880073219
222.34              0.250285998408
130.688              0.143725885928
84.367              0.0871970905812
39.768              0.0328331614969
29.651              0.0251948356896
20.321              0.0159646623712
10.9854              0.00563967745955
7.1229              0.00245876904556
3.3971              -5.22616847923e-05
