Magnetic Field (Oe) Normalized Magnetization
7019.4              1.0
6828.3              0.998363627818
6629.2              0.996182490148
6427.3              0.992441096425
6220.9              0.990480189118
6011.7              0.986702536351
5802.5              0.982352238515
5593.9              0.976979568194
5381.7              0.972022020074
5169.4              0.967902677139
4955.2              0.958677726969
4741.3              0.95284054654
4526.1              0.940584232519
4311.4              0.928320466193
4094.7              0.910587301635
3879.6              0.888647879353
3661.5              0.8599475135
3443.4              0.825087491097
3224.9              0.78025623115
3003.9              0.732637464205
2781.5              0.683480964777
2559.0              0.630531940687
2337.1              0.576432262145
2110.1              0.51751683466
1885.96              0.454848351755
1658.14              0.393544364839
1430.79              0.338476952062
1201.09              0.280268133839
969.89              0.223712714665
783.18              0.181069682462
599.61              0.136388258218
413.49              0.0928873107754
226.14              0.0491880329315
175.725              0.0377127720111
129.085              0.0250142136577
83.346              0.0147007665634
37.657              0.00630486829587
26.537              0.000571415142567
16.8385              0.0011527135017
7.3301              0.000562896857849
3.2246              -0.000183564247496
