Magnetic Field (Oe) Normalized Magnetization
7019.4              1.0
6828.2              0.999214351504
6629.2              0.998330150976
6427.3              0.993517020593
6220.8              0.989218749162
6011.5              0.986664851074
5802.5              0.981458765124
5593.9              0.977604235984
5381.9              0.972154339062
5169.3              0.965793205938
4955.0              0.956756510479
4741.5              0.947868971451
4525.9              0.936522062323
4311.2              0.921980706674
4094.9              0.899660017114
3879.9              0.870805582892
3661.2              0.83768092014
3443.4              0.798686816652
3224.8              0.752794651224
3003.8              0.704002849196
2781.7              0.653617608628
2558.9              0.60185805089
2336.9              0.549653891405
2110.4              0.493748638858
1885.89              0.435041574523
1657.99              0.382401988664
1430.65              0.328660794359
1201.4              0.272434168253
969.88              0.21709190426
783.4              0.175083601129
599.43              0.130133059417
413.24              0.0878607850344
225.97              0.0415510852297
175.791              0.0318376145023
129.062              0.022980330409
83.258              0.0138523378378
37.698              0.00185494052712
26.436              0.00116762906893
16.7966              -0.000745417986887
7.3111              -0.00105771494595
3.1967              -0.000287543980558
