Magnetic Field (Oe) Normalized Magnetization
7018.9              1.0
6827.5              0.998784086196
6629.4              0.997203215362
6426.9              0.991333703244
6221.0              0.991000926924
6011.8              0.987960624986
5802.3              0.982519968656
5593.7              0.977200926315
5381.4              0.972944394327
5168.7              0.969174467969
4954.9              0.965282841343
4741.2              0.956590450817
4525.9              0.946919737935
4311.1              0.936614292299
4094.7              0.921386643191
3880.1              0.90286497589
3661.4              0.876021095936
3442.8              0.841876117923
3224.8              0.800471417721
3003.7              0.751311412537
2781.6              0.706016025197
2558.9              0.653456081566
2336.9              0.59654684826
2110.4              0.53936460808
1885.96              0.47540501961
1658.0              0.411080545762
1430.67              0.350133056058
1201.38              0.291071621386
969.88              0.234624983858
783.44              0.187267257568
599.49              0.142251332267
413.29              0.09823845076
225.93              0.0518545449909
175.844              0.0386022693685
129.125              0.0267494740325
83.318              0.0184201458557
37.714              0.00650551450485
26.43              0.00203686898903
16.7777              0.000669620745597
7.3187              0.00054831183645
3.1772              -0.000151705406105
