Magnetic Field (Oe) Normalized Magnetization
4392.3              1.0
4238.8              0.998974672744
4080.0              0.998830627545
3919.1              0.997709503571
3755.2              0.997205124424
3590.6              0.996671898087
3422.7              0.99532863338
3255.8              0.994255475122
3085.3              0.992606502039
2914.2              0.990303946398
2742.1              0.988720945757
2567.1              0.987743794158
2394.2              0.983348646863
2216.2              0.979594821926
2039.6              0.975050629103
1862.52              0.967376761029
1682.19              0.955344867994
1503.6              0.936098756326
1320.88              0.895795893415
1140.49              0.827788032577
957.97              0.742832455147
773.75              0.645219291577
591.66              0.532224736823
407.98              0.39825466392
222.56              0.237958577713
130.863              0.138544794687
84.839              0.0841045127454
39.883              0.0334438731193
29.7              0.0235669275038
20.394              0.0130238844121
11.0962              0.00576822754192
7.2453              0.00187916984586
3.5054              -0.00150598267883
