Magnetic Field (Oe) Normalized Magnetization
4391.5              1.0
4238.4              0.998237588296
4079.4              0.997560952446
3918.2              0.997025568858
3754.9              0.993753340402
3590.2              0.992734784846
3422.1              0.990284061794
3255.1              0.988905750585
3085.1              0.987604479113
2913.8              0.986337343361
2741.9              0.98607128152
2566.8              0.981070799912
2394.0              0.977746669082
2216.0              0.97217809392
2039.3              0.963481262797
1862.17              0.949986290666
1681.86              0.927557585571
1503.24              0.884180672081
1320.58              0.820350995487
1140.13              0.747123359075
957.67              0.665931303869
773.42              0.572742866792
591.35              0.466176267681
407.69              0.350209496447
222.29              0.20678882725
130.607              0.121520222822
84.738              0.0752490996603
39.729              0.0283797942331
29.546              0.0198958257884
20.228              0.0130799407281
10.8995              0.00660231405053
7.0548              0.00467392949603
3.2819              -0.000191190856726
