Magnetic Field (Oe) Normalized Magnetization
4392.2              1.0
4238.9              0.99909181565
4079.9              0.998394241898
3918.8              0.997729038722
3755.4              0.996757014408
3590.7              0.995268912319
3422.7              0.994612700652
3255.6              0.993267654873
3085.5              0.991641425188
2914.2              0.989168705382
2742.4              0.986459139489
2567.0              0.984265595744
2394.3              0.980135123197
2216.5              0.976576744002
2039.6              0.970711351581
1862.69              0.96176527883
1682.38              0.949878344048
1503.58              0.926099712236
1320.99              0.880185032211
1140.59              0.80881521433
957.93              0.723821422434
773.81              0.627490687405
591.76              0.516602867241
407.91              0.385834607002
222.58              0.22884368423
130.931              0.131820358241
84.914              0.0812549238472
39.935              0.0309915205107
29.774              0.0203406845711
20.459              0.0117631880662
11.1222              0.00305702397011
7.2816              0.000356577082682
3.5832              -0.00190665700853
